                      Radius                ground state               first excited              second excited
      0.2000000000000000E+01     -0.4191806173494116E+02     -0.2077617149584274E+02      0.7117798288066787E-01
      0.2020050125313283E+01     -0.4204141651915052E+02     -0.2115151134424548E+02     -0.3833962789020146E-01
      0.2040100250626566E+01     -0.4216206081837061E+02     -0.2152125658272653E+02     -0.1722605154387071E+00
      0.2060150375939850E+01     -0.4228006982461829E+02     -0.2188544420341880E+02     -0.3320033736385343E+00
      0.2080200501253133E+01     -0.4239551631687486E+02     -0.2224411617105146E+02     -0.5175111164183207E+00
      0.2100250626566416E+01     -0.4250847074308118E+02     -0.2259731887608849E+02     -0.7275298298748605E+00
      0.2120300751879699E+01     -0.4261900129970509E+02     -0.2294510263312887E+02     -0.9600885053728339E+00
      0.2140350877192982E+01     -0.4272717400874406E+02     -0.2328752122101110E+02     -0.1212929317500564E+01
      0.2160401002506266E+01     -0.4283305279235734E+02     -0.2362463146150195E+02     -0.1483785833623139E+01
      0.2180451127819549E+01     -0.4293669954497433E+02     -0.2395649283340059E+02     -0.1770523803563950E+01
      0.2200501253132832E+01     -0.4303817420312609E+02     -0.2428316711944692E+02     -0.2071194921174838E+01
      0.2220551378446115E+01     -0.4313753481286488E+02     -0.2460471808339351E+02     -0.2384045709902596E+01
      0.2240601503759398E+01     -0.4323483759497930E+02     -0.2492121117488528E+02     -0.2707506821156416E+01
      0.2260651629072682E+01     -0.4333013700796135E+02     -0.2523271325999037E+02     -0.3040175529004475E+01
      0.2280701754385965E+01     -0.4342348580875911E+02     -0.2553929237530673E+02     -0.3380797156450503E+01
      0.2300751879699248E+01     -0.4351493511153122E+02     -0.2584101750387573E+02     -0.3728247705457313E+01
      0.2320802005012531E+01     -0.4360453444424282E+02     -0.2613795837111094E+02     -0.4081518405409924E+01
      0.2340852130325815E+01     -0.4369233180334611E+02     -0.2643018525912150E+02     -0.4439702248541832E+01
      0.2360902255639098E+01     -0.4377837370642992E+02     -0.2671776883807802E+02     -0.4801982343338652E+01
      0.2380952380952381E+01     -0.4386270524314554E+02     -0.2700078001314969E+02     -0.5167621850771864E+01
      0.2401002506265664E+01     -0.4394537012421981E+02     -0.2727928978585962E+02     -0.5535955271098654E+01
      0.2421052631578947E+01     -0.4402641072868093E+02     -0.2755336912862375E+02     -0.5906380874366164E+01
      0.2441102756892231E+01     -0.4410586814946506E+02     -0.2782308887144746E+02     -0.6278354098522852E+01
      0.2461152882205514E+01     -0.4418378223737041E+02     -0.2808851959983551E+02     -0.6651381767982676E+01
      0.2481203007518797E+01     -0.4426019164336547E+02     -0.2834973156290988E+02     -0.7025017010338736E+01
      0.2501253132832080E+01     -0.4433513385941529E+02     -0.2860679459102605E+02     -0.7398854769872925E+01
      0.2521303258145363E+01     -0.4440864525784497E+02     -0.2885977802200804E+02     -0.7772527833400396E+01
      0.2541353383458647E+01     -0.4448076112919510E+02     -0.2910875063532665E+02     -0.8145703298236649E+01
      0.2561403508771930E+01     -0.4455151571881903E+02     -0.2935378059364921E+02     -0.8518079423006355E+01
      0.2581453634085213E+01     -0.4462094226201381E+02     -0.2959493539097070E+02     -0.8889382811806179E+01
      0.2601503759398496E+01     -0.4468907301802748E+02     -0.2983228180697080E+02     -0.9259365889445199E+01
      0.2621553884711779E+01     -0.4475593930267134E+02     -0.3006588586694849E+02     -0.9627804632017353E+01
      0.2641604010025063E+01     -0.4482157151989840E+02     -0.3029581280692083E+02     -0.9994496522171270E+01
      0.2661654135338346E+01     -0.4488599919213097E+02     -0.3052212704341618E+02     -0.1035925870285597E+02
      0.2681704260651629E+01     -0.4494925098951351E+02     -0.3074489214756778E+02     -0.1072192630683534E+02
      0.2701754385964912E+01     -0.4501135475813826E+02     -0.3096417082318085E+02     -0.1108235094237756E+02
      0.2721804511278195E+01     -0.4507233754720534E+02     -0.3118002488839081E+02     -0.1144039931817594E+02
      0.2741854636591479E+01     -0.4513222563522632E+02     -0.3139251526050771E+02     -0.1179595199256443E+02
      0.2761904761904762E+01     -0.4519104455528583E+02     -0.3160170194399669E+02     -0.1214890223406441E+02
      0.2781954887218045E+01     -0.4524881911934561E+02     -0.3180764402106927E+02     -0.1249915498192492E+02
      0.2802005012531328E+01     -0.4530557344177840E+02     -0.3201039964479421E+02     -0.1284662589654661E+02
      0.2822055137844611E+01     -0.4536133096190896E+02     -0.3221002603443569E+02     -0.1319124049095877E+02
      0.2842105263157895E+01     -0.4541611446587204E+02     -0.3240657947289010E+02     -0.1353293333552796E+02
      0.2862155388471178E+01     -0.4546994610763713E+02     -0.3260011530584775E+02     -0.1387164732891225E+02
      0.2882205513784461E+01     -0.4552284742930057E+02     -0.3279068794278386E+02     -0.1420733302904526E+02
      0.2902255639097744E+01     -0.4557483938056502E+02     -0.3297835085929432E+02     -0.1453994803862024E+02
      0.2922305764411028E+01     -0.4562594233773624E+02     -0.3316315660097569E+02     -0.1486945644024309E+02
      0.2942355889724311E+01     -0.4567617612179410E+02     -0.3334515678830470E+02     -0.1519582827660810E+02
      0.2962406015037594E+01     -0.4572556001598679E+02     -0.3352440212281600E+02     -0.1551903907193153E+02
      0.2982456140350877E+01     -0.4577411278279277E+02     -0.3370094239414320E+02     -0.1583906939096435E+02
      0.3002506265664160E+01     -0.4582185268019250E+02     -0.3387482648796584E+02     -0.1615590443228680E+02
      0.3022556390977444E+01     -0.4586879747749440E+02     -0.3404610239471351E+02     -0.1646953365320366E+02
      0.3042606516290727E+01     -0.4591496447049769E+02     -0.3421481721900670E+02     -0.1677995042333008E+02
      0.3062656641604010E+01     -0.4596037049620815E+02     -0.3438101718960547E+02     -0.1708715170470202E+02
      0.3082706766917293E+01     -0.4600503194696715E+02     -0.3454474766998192E+02     -0.1739113775611546E+02
      0.3102756892230576E+01     -0.4604896478417066E+02     -0.3470605316930649E+02     -0.1769191185975458E+02
      0.3122807017543860E+01     -0.4609218455146050E+02     -0.3486497735381609E+02     -0.1798948006845977E+02
      0.3142857142857143E+01     -0.4613470638746925E+02     -0.3502156305853524E+02     -0.1828385097171225E+02
      0.3162907268170426E+01     -0.4617654503814300E+02     -0.3517585229929647E+02     -0.1857503547919125E+02
      0.3182957393483709E+01     -0.4621771486861175E+02     -0.3532788628496556E+02     -0.1886304662025861E+02
      0.3203007518796992E+01     -0.4625822987470190E+02     -0.3547770542986025E+02     -0.1914789935835117E+02
      0.3223057644110276E+01     -0.4629810369401745E+02     -0.3562534936635635E+02     -0.1942961041897897E+02
      0.3243107769423559E+01     -0.4633734961666028E+02     -0.3577085695758216E+02     -0.1970819813042628E+02
      0.3263157894736842E+01     -0.4637598059558381E+02     -0.3591426631015919E+02     -0.1998368227605568E+02
      0.3283208020050125E+01     -0.4641400925661037E+02     -0.3605561478708462E+02     -0.2025608395752631E+02
      0.3303258145363408E+01     -0.4645144790807302E+02     -0.3619493902052236E+02     -0.2052542546792731E+02
      0.3323308270676692E+01     -0.4648830855021083E+02     -0.3633227492473159E+02     -0.2079173017422860E+02
      0.3343358395989975E+01     -0.4652460288416722E+02     -0.3646765770878991E+02     -0.2105502240829779E+02
      0.3363408521303258E+01     -0.4656034232074911E+02     -0.3660112188948015E+02     -0.2131532736590552E+02
      0.3383458646616541E+01     -0.4659553798883415E+02     -0.3673270130393679E+02     -0.2157267101304586E+02
      0.3403508771929824E+01     -0.4663020074361567E+02     -0.3686242912233113E+02     -0.2182707999925080E+02
      0.3423558897243108E+01     -0.4666434117440292E+02     -0.3699033786039325E+02     -0.2207858157703726E+02
      0.3443609022556391E+01     -0.4669796961233103E+02     -0.3711645939185875E+02     -0.2232720352750202E+02
      0.3463659147869674E+01     -0.4673109613776428E+02     -0.3724082496082649E+02     -0.2257297409125107E+02
      0.3483709273182957E+01     -0.4676373058736111E+02     -0.3736346519388773E+02     -0.2281592190441037E+02
      0.3503759398496241E+01     -0.4679588256111089E+02     -0.3748441011228212E+02     -0.2305607593952242E+02
      0.3523809523809524E+01     -0.4682756142890908E+02     -0.3760368914370160E+02     -0.2329346545066672E+02
      0.3543859649122807E+01     -0.4685877633712742E+02     -0.3772133113414921E+02     -0.2352811992280897E+02
      0.3563909774436090E+01     -0.4688953621486146E+02     -0.3783736435948529E+02     -0.2376006902487796E+02
      0.3583959899749373E+01     -0.4691984977995246E+02     -0.3795181653687768E+02     -0.2398934256643536E+02
      0.3604010025062657E+01     -0.4694972554496988E+02     -0.3806471483610218E+02     -0.2421597045764488E+02
      0.3624060150375940E+01     -0.4697917182278049E+02     -0.3817608589060873E+02     -0.2443998267224920E+02
      0.3644110275689223E+01     -0.4700819673217654E+02     -0.3828595580847958E+02     -0.2466140921350248E+02
      0.3664160401002506E+01     -0.4703680820312435E+02     -0.3839435018314524E+02     -0.2488028008268464E+02
      0.3684210526315789E+01     -0.4706501398196110E+02     -0.3850129410399861E+02     -0.2509662525011410E+02
      0.3704260651629073E+01     -0.4709282163645420E+02     -0.3860681216674944E+02     -0.2531047462851432E+02
      0.3724310776942356E+01     -0.4712023856059428E+02     -0.3871092848366632E+02     -0.2552185804846615E+02
      0.3744360902255639E+01     -0.4714727197931255E+02     -0.3881366669359551E+02     -0.2573080523589706E+02
      0.3764411027568922E+01     -0.4717392895303973E+02     -0.3891504997178474E+02     -0.2593734579140426E+02
      0.3784461152882205E+01     -0.4720021638214298E+02     -0.3901510103960464E+02     -0.2614150917140449E+02
      0.3804511278195489E+01     -0.4722614101116702E+02     -0.3911384217396822E+02     -0.2634332467073631E+02
      0.3824561403508772E+01     -0.4725170943304641E+02     -0.3921129521672655E+02     -0.2654282140698515E+02
      0.3844611528822055E+01     -0.4727692809304187E+02     -0.3930748158370501E+02     -0.2674002830600197E+02
      0.3864661654135338E+01     -0.4730180329273659E+02     -0.3940242227371730E+02     -0.2693497408888617E+02
      0.3884711779448621E+01     -0.4732634119374337E+02     -0.3949613787729855E+02     -0.2712768726008661E+02
      0.3904761904761905E+01     -0.4735054782142516E+02     -0.3958864858536001E+02     -0.2731819609670573E+02
      0.3924812030075188E+01     -0.4737442906841380E+02     -0.3967997419754266E+02     -0.2750652863879827E+02
      0.3944862155388471E+01     -0.4739799069811705E+02     -0.3977013413054865E+02     -0.2769271268072685E+02
      0.3964912280701754E+01     -0.4742123834799591E+02     -0.3985914742617268E+02     -0.2787677576334629E+02
      0.3984962406015037E+01     -0.4744417753288927E+02     -0.3994703275927132E+02     -0.2805874516711490E+02
      0.4005012531328321E+01     -0.4746681364810288E+02     -0.4003380844547362E+02     -0.2823864790593957E+02
      0.4025062656641603E+01     -0.4748915197253831E+02     -0.4011949244880135E+02     -0.2841651072182461E+02
      0.4045112781954886E+01     -0.4751119767159311E+02     -0.4020410238912918E+02     -0.2859236008011499E+02
      0.4065162907268169E+01     -0.4753295580009574E+02     -0.4028765554941496E+02     -0.2876622216546735E+02
      0.4085213032581452E+01     -0.4755443130509670E+02     -0.4037016888285444E+02     -0.2893812287834249E+02
      0.4105263157894735E+01     -0.4757562902856390E+02     -0.4045165901984878E+02     -0.2910808783209376E+02
      0.4125313283208017E+01     -0.4759655371004830E+02     -0.4053214227483378E+02     -0.2927614235053956E+02
      0.4145363408521300E+01     -0.4761720998924772E+02     -0.4061163465293163E+02     -0.2944231146602884E+02
      0.4165413533834583E+01     -0.4763760240845785E+02     -0.4069015185651161E+02     -0.2960661991789031E+02
      0.4185463659147866E+01     -0.4765773541507227E+02     -0.4076770929157515E+02     -0.2976909215142295E+02
      0.4205513784461148E+01     -0.4767761336383662E+02     -0.4084432207398111E+02     -0.2992975231703192E+02
      0.4225563909774431E+01     -0.4769724051919765E+02     -0.4092000503561006E+02     -0.3008862426998879E+02
      0.4245614035087714E+01     -0.4771662105749873E+02     -0.4099477273028215E+02     -0.3024573157029265E+02
      0.4265664160400997E+01     -0.4773575906913941E+02     -0.4106863943967062E+02     -0.3040109748294375E+02
      0.4285714285714279E+01     -0.4775465856067053E+02     -0.4114161917897449E+02     -0.3055474497842367E+02
      0.4305764411027562E+01     -0.4777332345682625E+02     -0.4121372570253573E+02     -0.3070669673353071E+02
      0.4325814536340845E+01     -0.4779175760250370E+02     -0.4128497250930846E+02     -0.3085697513230578E+02
      0.4345864661654128E+01     -0.4780996476470138E+02     -0.4135537284820567E+02     -0.3100560226729777E+02
      0.4365914786967410E+01     -0.4782794863436520E+02     -0.4142493972334321E+02     -0.3115259994095599E+02
      0.4385964912280693E+01     -0.4784571282824776E+02     -0.4149368589913610E+02     -0.3129798966723971E+02
      0.4406015037593976E+01     -0.4786326089062099E+02     -0.4156162390532410E+02     -0.3144179267334742E+02
      0.4426065162907259E+01     -0.4788059629505280E+02     -0.4162876604182620E+02     -0.3158402990163611E+02
      0.4446115288220541E+01     -0.4789772244603878E+02     -0.4169512438356998E+02     -0.3172472201167618E+02
      0.4466165413533824E+01     -0.4791464268066877E+02     -0.4176071078514011E+02     -0.3186388938242899E+02
      0.4486215538847107E+01     -0.4793136027016438E+02     -0.4182553688534621E+02     -0.3200155211448619E+02
      0.4506265664160390E+01     -0.4794787842147328E+02     -0.4188961411171195E+02     -0.3213773003250700E+02
      0.4526315789473673E+01     -0.4796420027871722E+02     -0.4195295368482265E+02     -0.3227244268765275E+02
      0.4546365914786955E+01     -0.4798032892468802E+02     -0.4201556662262197E+02     -0.3240570936017934E+02
      0.4566416040100238E+01     -0.4799626738225229E+02     -0.4207746374456706E+02     -0.3253754906205290E+02
      0.4586466165413521E+01     -0.4801201861573877E+02     -0.4213865567572502E+02     -0.3266798053965111E+02
      0.4606516290726804E+01     -0.4802758553227116E+02     -0.4219915285076949E+02     -0.3279702227652062E+02
      0.4626566416040086E+01     -0.4804297098311120E+02     -0.4225896551788109E+02     -0.3292469249619861E+02
      0.4646616541353369E+01     -0.4805817776490110E+02     -0.4231810374255063E+02     -0.3305100916504249E+02
      0.4666666666666652E+01     -0.4807320862089384E+02     -0.4237657741134188E+02     -0.3317598999512371E+02
      0.4686716791979935E+01     -0.4808806624220696E+02     -0.4243439623548770E+02     -0.3329965244717428E+02
      0.4706766917293217E+01     -0.4810275326898369E+02     -0.4249156975453506E+02     -0.3342201373351358E+02
      0.4726817042606500E+01     -0.4811727229151776E+02     -0.4254810733976076E+02     -0.3354309082101028E+02
      0.4746867167919783E+01     -0.4813162585139367E+02     -0.4260401819761277E+02     -0.3366290043410244E+02
      0.4766917293233066E+01     -0.4814581644257100E+02     -0.4265931137306288E+02     -0.3378145905776417E+02
      0.4786967418546348E+01     -0.4815984651242319E+02     -0.4271399575282293E+02     -0.3389878294054247E+02
      0.4807017543859631E+01     -0.4817371846281524E+02     -0.4276808006856381E+02     -0.3401488809754144E+02
      0.4827067669172914E+01     -0.4818743465107362E+02     -0.4282157290003848E+02     -0.3412979031348157E+02
      0.4847117794486197E+01     -0.4820099739098679E+02     -0.4287448267813072E+02     -0.3424350514568665E+02
      0.4867167919799479E+01     -0.4821440895371745E+02     -0.4292681768777818E+02     -0.3435604792707117E+02
      0.4887218045112762E+01     -0.4822767156881451E+02     -0.4297858607097265E+02     -0.3446743376919890E+02
      0.4907268170426045E+01     -0.4824078742504923E+02     -0.4302979582957479E+02     -0.3457767756523438E+02
      0.4927318295739328E+01     -0.4825375867133614E+02     -0.4308045482807012E+02     -0.3468679399295044E+02
      0.4947368421052611E+01     -0.4826658741757995E+02     -0.4313057079634670E+02     -0.3479479751766388E+02
      0.4967418546365893E+01     -0.4827927573554124E+02     -0.4318015133234376E+02     -0.3490170239523130E+02
      0.4987468671679176E+01     -0.4829182565962333E+02     -0.4322920390464365E+02     -0.3500752267494934E+02
      0.5007518796992459E+01     -0.4830423918770363E+02     -0.4327773585503605E+02     -0.3511227220247521E+02
      0.5027568922305742E+01     -0.4831651828187059E+02     -0.4332575440101382E+02     -0.3521596462272943E+02
      0.5047619047619024E+01     -0.4832866486925757E+02     -0.4337326663821206E+02     -0.3531861338276912E+02
      0.5067669172932307E+01     -0.4834068084272107E+02     -0.4342027954280639E+02     -0.3542023173461710E+02
      0.5087719298245590E+01     -0.4835256806157354E+02     -0.4346679997379380E+02     -0.3552083273811430E+02
      0.5107769423558873E+01     -0.4836432835232274E+02     -0.4351283467537186E+02     -0.3562042926368719E+02
      0.5127819548872155E+01     -0.4837596350932641E+02     -0.4355839027907589E+02     -0.3571903399513510E+02
      0.5147869674185438E+01     -0.4838747529549854E+02     -0.4360347330602941E+02     -0.3581665943238487E+02
      0.5167919799498721E+01     -0.4839886544293382E+02     -0.4364809016906535E+02     -0.3591331789418904E+02
      0.5187969924812004E+01     -0.4841013565355412E+02     -0.4369224717479879E+02     -0.3600902152081721E+02
      0.5208020050125286E+01     -0.4842128759975246E+02     -0.4373595052568532E+02     -0.3610378227671296E+02
      0.5228070175438569E+01     -0.4843232292498576E+02     -0.4377920632205078E+02     -0.3619761195312602E+02
      0.5248120300751852E+01     -0.4844324324437904E+02     -0.4382202056399125E+02     -0.3629052217071224E+02
      0.5268170426065135E+01     -0.4845405014530289E+02     -0.4386439915336049E+02     -0.3638252438210218E+02
      0.5288220551378418E+01     -0.4846474518793766E+02     -0.4390634789559492E+02     -0.3647362987442146E+02
      0.5308270676691700E+01     -0.4847532990584107E+02     -0.4394787250155888E+02     -0.3656384977181492E+02
      0.5328320802004983E+01     -0.4848580580647784E+02     -0.4398897858937435E+02     -0.3665319503792774E+02
      0.5348370927318266E+01     -0.4849617437174252E+02     -0.4402967168612246E+02     -0.3674167647830497E+02
      0.5368421052631549E+01     -0.4850643705848131E+02     -0.4406995722960497E+02     -0.3682930474284404E+02
      0.5388471177944831E+01     -0.4851659529902258E+02     -0.4410984057003226E+02     -0.3691609032818244E+02
      0.5408521303258114E+01     -0.4852665050162129E+02     -0.4414932697164703E+02     -0.3700204358000367E+02
      0.5428571428571397E+01     -0.4853660405096500E+02     -0.4418842161434935E+02     -0.3708717469537566E+02
      0.5448621553884680E+01     -0.4854645730865590E+02     -0.4422712959528347E+02     -0.3717149372505133E+02
      0.5468671679197962E+01     -0.4855621161365105E+02     -0.4426545593036615E+02     -0.3725501057568419E+02
      0.5488721804511245E+01     -0.4856586828270109E+02     -0.4430340555581277E+02     -0.3733773501208215E+02
